# Pulseq sequence file
# Created by MATLAB mr toolbox

[VERSION]
major 1
minor 3
revision 0

# Format of blocks:
#  #  D RF  GX  GY  GZ ADC EXT
[BLOCKS]
  1  0  1   0   0   0  0  0
  2  1  0   0   0   0  0  0
  3  2  0   0   0   0  1  0
  4  3  0   0   0   0  0  0
  5  0  1   0   0   0  0  0
  6  1  0   0   0   0  0  0
  7  2  0   0   0   0  1  0
  8  3  0   0   0   0  0  0
  9  0  1   0   0   0  0  0
 10  1  0   0   0   0  0  0
 11  2  0   0   0   0  1  0
 12  3  0   0   0   0  0  0
 13  0  1   0   0   0  0  0
 14  1  0   0   0   0  0  0
 15  2  0   0   0   0  1  0
 16  3  0   0   0   0  0  0
 17  0  1   0   0   0  0  0
 18  1  0   0   0   0  0  0
 19  2  0   0   0   0  1  0
 20  3  0   0   0   0  0  0
 21  0  1   0   0   0  0  0
 22  1  0   0   0   0  0  0
 23  2  0   0   0   0  1  0
 24  3  0   0   0   0  0  0
 25  0  1   0   0   0  0  0
 26  1  0   0   0   0  0  0
 27  2  0   0   0   0  1  0
 28  3  0   0   0   0  0  0
 29  0  1   0   0   0  0  0
 30  1  0   0   0   0  0  0
 31  2  0   0   0   0  1  0
 32  3  0   0   0   0  0  0
 33  0  1   0   0   0  0  0
 34  1  0   0   0   0  0  0
 35  2  0   0   0   0  1  0
 36  3  0   0   0   0  0  0
 37  0  1   0   0   0  0  0
 38  1  0   0   0   0  0  0
 39  2  0   0   0   0  1  0
 40  3  0   0   0   0  0  0
 41  0  1   0   0   0  0  0
 42  1  0   0   0   0  0  0
 43  2  0   0   0   0  1  0
 44  3  0   0   0   0  0  0
 45  0  1   0   0   0  0  0
 46  1  0   0   0   0  0  0
 47  2  0   0   0   0  1  0
 48  3  0   0   0   0  0  0
 49  0  1   0   0   0  0  0
 50  1  0   0   0   0  0  0
 51  2  0   0   0   0  1  0
 52  3  0   0   0   0  0  0
 53  0  1   0   0   0  0  0
 54  1  0   0   0   0  0  0
 55  2  0   0   0   0  1  0
 56  3  0   0   0   0  0  0
 57  0  1   0   0   0  0  0
 58  1  0   0   0   0  0  0
 59  2  0   0   0   0  1  0
 60  3  0   0   0   0  0  0
 61  0  1   0   0   0  0  0
 62  1  0   0   0   0  0  0
 63  2  0   0   0   0  1  0
 64  3  0   0   0   0  0  0
 65  0  1   0   0   0  0  0
 66  1  0   0   0   0  0  0
 67  2  0   0   0   0  1  0
 68  3  0   0   0   0  0  0
 69  0  1   0   0   0  0  0
 70  1  0   0   0   0  0  0
 71  2  0   0   0   0  1  0
 72  3  0   0   0   0  0  0
 73  0  1   0   0   0  0  0
 74  1  0   0   0   0  0  0
 75  2  0   0   0   0  1  0
 76  3  0   0   0   0  0  0
 77  0  1   0   0   0  0  0
 78  1  0   0   0   0  0  0
 79  2  0   0   0   0  1  0
 80  3  0   0   0   0  0  0
 81  0  1   0   0   0  0  0
 82  1  0   0   0   0  0  0
 83  2  0   0   0   0  1  0
 84  3  0   0   0   0  0  0
 85  0  1   0   0   0  0  0
 86  1  0   0   0   0  0  0
 87  2  0   0   0   0  1  0
 88  3  0   0   0   0  0  0
 89  0  1   0   0   0  0  0
 90  1  0   0   0   0  0  0
 91  2  0   0   0   0  1  0
 92  3  0   0   0   0  0  0
 93  0  1   0   0   0  0  0
 94  1  0   0   0   0  0  0
 95  2  0   0   0   0  1  0
 96  3  0   0   0   0  0  0
 97  0  1   0   0   0  0  0
 98  1  0   0   0   0  0  0
 99  2  0   0   0   0  1  0
100  3  0   0   0   0  0  0
101  0  1   0   0   0  0  0
102  1  0   0   0   0  0  0
103  2  0   0   0   0  1  0
104  3  0   0   0   0  0  0
105  0  1   0   0   0  0  0
106  1  0   0   0   0  0  0
107  2  0   0   0   0  1  0
108  3  0   0   0   0  0  0
109  0  1   0   0   0  0  0
110  1  0   0   0   0  0  0
111  2  0   0   0   0  1  0
112  3  0   0   0   0  0  0
113  0  1   0   0   0  0  0
114  1  0   0   0   0  0  0
115  2  0   0   0   0  1  0
116  3  0   0   0   0  0  0
117  0  1   0   0   0  0  0
118  1  0   0   0   0  0  0
119  2  0   0   0   0  1  0
120  3  0   0   0   0  0  0
121  0  1   0   0   0  0  0
122  1  0   0   0   0  0  0
123  2  0   0   0   0  1  0
124  3  0   0   0   0  0  0
125  0  1   0   0   0  0  0
126  1  0   0   0   0  0  0
127  2  0   0   0   0  1  0
128  3  0   0   0   0  0  0
129  0  1   0   0   0  0  0
130  1  0   0   0   0  0  0
131  2  0   0   0   0  1  0
132  3  0   0   0   0  0  0
133  0  1   0   0   0  0  0
134  1  0   0   0   0  0  0
135  2  0   0   0   0  1  0
136  3  0   0   0   0  0  0
137  0  1   0   0   0  0  0
138  1  0   0   0   0  0  0
139  2  0   0   0   0  1  0
140  3  0   0   0   0  0  0
141  0  1   0   0   0  0  0
142  1  0   0   0   0  0  0
143  2  0   0   0   0  1  0
144  3  0   0   0   0  0  0
145  0  1   0   0   0  0  0
146  1  0   0   0   0  0  0
147  2  0   0   0   0  1  0
148  3  0   0   0   0  0  0
149  0  1   0   0   0  0  0
150  1  0   0   0   0  0  0
151  2  0   0   0   0  1  0
152  3  0   0   0   0  0  0
153  0  1   0   0   0  0  0
154  1  0   0   0   0  0  0
155  2  0   0   0   0  1  0
156  3  0   0   0   0  0  0
157  0  1   0   0   0  0  0
158  1  0   0   0   0  0  0
159  2  0   0   0   0  1  0
160  3  0   0   0   0  0  0
161  0  1   0   0   0  0  0
162  1  0   0   0   0  0  0
163  2  0   0   0   0  1  0
164  3  0   0   0   0  0  0
165  0  1   0   0   0  0  0
166  1  0   0   0   0  0  0
167  2  0   0   0   0  1  0
168  3  0   0   0   0  0  0
169  0  1   0   0   0  0  0
170  1  0   0   0   0  0  0
171  2  0   0   0   0  1  0
172  3  0   0   0   0  0  0
173  0  1   0   0   0  0  0
174  1  0   0   0   0  0  0
175  2  0   0   0   0  1  0
176  3  0   0   0   0  0  0
177  0  1   0   0   0  0  0
178  1  0   0   0   0  0  0
179  2  0   0   0   0  1  0
180  3  0   0   0   0  0  0
181  0  1   0   0   0  0  0
182  1  0   0   0   0  0  0
183  2  0   0   0   0  1  0
184  3  0   0   0   0  0  0
185  0  1   0   0   0  0  0
186  1  0   0   0   0  0  0
187  2  0   0   0   0  1  0
188  3  0   0   0   0  0  0
189  0  1   0   0   0  0  0
190  1  0   0   0   0  0  0
191  2  0   0   0   0  1  0
192  3  0   0   0   0  0  0
193  0  1   0   0   0  0  0
194  1  0   0   0   0  0  0
195  2  0   0   0   0  1  0
196  3  0   0   0   0  0  0
197  0  1   0   0   0  0  0
198  1  0   0   0   0  0  0
199  2  0   0   0   0  1  0
200  3  0   0   0   0  0  0
201  0  1   0   0   0  0  0
202  1  0   0   0   0  0  0
203  2  0   0   0   0  1  0
204  3  0   0   0   0  0  0
205  0  1   0   0   0  0  0
206  1  0   0   0   0  0  0
207  2  0   0   0   0  1  0
208  3  0   0   0   0  0  0
209  0  1   0   0   0  0  0
210  1  0   0   0   0  0  0
211  2  0   0   0   0  1  0
212  3  0   0   0   0  0  0
213  0  1   0   0   0  0  0
214  1  0   0   0   0  0  0
215  2  0   0   0   0  1  0
216  3  0   0   0   0  0  0
217  0  1   0   0   0  0  0
218  1  0   0   0   0  0  0
219  2  0   0   0   0  1  0
220  3  0   0   0   0  0  0
221  0  1   0   0   0  0  0
222  1  0   0   0   0  0  0
223  2  0   0   0   0  1  0
224  3  0   0   0   0  0  0
225  0  1   0   0   0  0  0
226  1  0   0   0   0  0  0
227  2  0   0   0   0  1  0
228  3  0   0   0   0  0  0
229  0  1   0   0   0  0  0
230  1  0   0   0   0  0  0
231  2  0   0   0   0  1  0
232  3  0   0   0   0  0  0
233  0  1   0   0   0  0  0
234  1  0   0   0   0  0  0
235  2  0   0   0   0  1  0
236  3  0   0   0   0  0  0
237  0  1   0   0   0  0  0
238  1  0   0   0   0  0  0
239  2  0   0   0   0  1  0
240  3  0   0   0   0  0  0
241  0  1   0   0   0  0  0
242  1  0   0   0   0  0  0
243  2  0   0   0   0  1  0
244  3  0   0   0   0  0  0
245  0  1   0   0   0  0  0
246  1  0   0   0   0  0  0
247  2  0   0   0   0  1  0
248  3  0   0   0   0  0  0
249  0  1   0   0   0  0  0
250  1  0   0   0   0  0  0
251  2  0   0   0   0  1  0
252  3  0   0   0   0  0  0
253  0  1   0   0   0  0  0
254  1  0   0   0   0  0  0
255  2  0   0   0   0  1  0
256  3  0   0   0   0  0  0
257  0  1   0   0   0  0  0
258  1  0   0   0   0  0  0
259  2  0   0   0   0  1  0
260  3  0   0   0   0  0  0
261  0  1   0   0   0  0  0
262  1  0   0   0   0  0  0
263  2  0   0   0   0  1  0
264  3  0   0   0   0  0  0
265  0  1   0   0   0  0  0
266  1  0   0   0   0  0  0
267  2  0   0   0   0  1  0
268  3  0   0   0   0  0  0
269  0  1   0   0   0  0  0
270  1  0   0   0   0  0  0
271  2  0   0   0   0  1  0
272  3  0   0   0   0  0  0
273  0  1   0   0   0  0  0
274  1  0   0   0   0  0  0
275  2  0   0   0   0  1  0
276  3  0   0   0   0  0  0
277  0  1   0   0   0  0  0
278  1  0   0   0   0  0  0
279  2  0   0   0   0  1  0
280  3  0   0   0   0  0  0
281  0  1   0   0   0  0  0
282  1  0   0   0   0  0  0
283  2  0   0   0   0  1  0
284  3  0   0   0   0  0  0
285  0  1   0   0   0  0  0
286  1  0   0   0   0  0  0
287  2  0   0   0   0  1  0
288  3  0   0   0   0  0  0
289  0  1   0   0   0  0  0
290  1  0   0   0   0  0  0
291  2  0   0   0   0  1  0
292  3  0   0   0   0  0  0
293  0  1   0   0   0  0  0
294  1  0   0   0   0  0  0
295  2  0   0   0   0  1  0
296  3  0   0   0   0  0  0
297  0  1   0   0   0  0  0
298  1  0   0   0   0  0  0
299  2  0   0   0   0  1  0
300  3  0   0   0   0  0  0
301  0  1   0   0   0  0  0
302  1  0   0   0   0  0  0
303  2  0   0   0   0  1  0
304  3  0   0   0   0  0  0
305  0  1   0   0   0  0  0
306  1  0   0   0   0  0  0
307  2  0   0   0   0  1  0
308  3  0   0   0   0  0  0
309  0  1   0   0   0  0  0
310  1  0   0   0   0  0  0
311  2  0   0   0   0  1  0
312  3  0   0   0   0  0  0
313  0  1   0   0   0  0  0
314  1  0   0   0   0  0  0
315  2  0   0   0   0  1  0
316  3  0   0   0   0  0  0
317  0  1   0   0   0  0  0
318  1  0   0   0   0  0  0
319  2  0   0   0   0  1  0
320  3  0   0   0   0  0  0
321  0  1   0   0   0  0  0
322  1  0   0   0   0  0  0
323  2  0   0   0   0  1  0
324  3  0   0   0   0  0  0
325  0  1   0   0   0  0  0
326  1  0   0   0   0  0  0
327  2  0   0   0   0  1  0
328  3  0   0   0   0  0  0
329  0  1   0   0   0  0  0
330  1  0   0   0   0  0  0
331  2  0   0   0   0  1  0
332  3  0   0   0   0  0  0
333  0  1   0   0   0  0  0
334  1  0   0   0   0  0  0
335  2  0   0   0   0  1  0
336  3  0   0   0   0  0  0
337  0  1   0   0   0  0  0
338  1  0   0   0   0  0  0
339  2  0   0   0   0  1  0
340  3  0   0   0   0  0  0
341  0  1   0   0   0  0  0
342  1  0   0   0   0  0  0
343  2  0   0   0   0  1  0
344  3  0   0   0   0  0  0
345  0  1   0   0   0  0  0
346  1  0   0   0   0  0  0
347  2  0   0   0   0  1  0
348  3  0   0   0   0  0  0
349  0  1   0   0   0  0  0
350  1  0   0   0   0  0  0
351  2  0   0   0   0  1  0
352  3  0   0   0   0  0  0
353  0  1   0   0   0  0  0
354  1  0   0   0   0  0  0
355  2  0   0   0   0  1  0
356  3  0   0   0   0  0  0
357  0  1   0   0   0  0  0
358  1  0   0   0   0  0  0
359  2  0   0   0   0  1  0
360  3  0   0   0   0  0  0
361  0  1   0   0   0  0  0
362  1  0   0   0   0  0  0
363  2  0   0   0   0  1  0
364  3  0   0   0   0  0  0
365  0  1   0   0   0  0  0
366  1  0   0   0   0  0  0
367  2  0   0   0   0  1  0
368  3  0   0   0   0  0  0
369  0  1   0   0   0  0  0
370  1  0   0   0   0  0  0
371  2  0   0   0   0  1  0
372  3  0   0   0   0  0  0
373  0  1   0   0   0  0  0
374  1  0   0   0   0  0  0
375  2  0   0   0   0  1  0
376  3  0   0   0   0  0  0
377  0  1   0   0   0  0  0
378  1  0   0   0   0  0  0
379  2  0   0   0   0  1  0
380  3  0   0   0   0  0  0
381  0  1   0   0   0  0  0
382  1  0   0   0   0  0  0
383  2  0   0   0   0  1  0
384  3  0   0   0   0  0  0
385  0  1   0   0   0  0  0
386  1  0   0   0   0  0  0
387  2  0   0   0   0  1  0
388  3  0   0   0   0  0  0
389  0  1   0   0   0  0  0
390  1  0   0   0   0  0  0
391  2  0   0   0   0  1  0
392  3  0   0   0   0  0  0
393  0  1   0   0   0  0  0
394  1  0   0   0   0  0  0
395  2  0   0   0   0  1  0
396  3  0   0   0   0  0  0
397  0  1   0   0   0  0  0
398  1  0   0   0   0  0  0
399  2  0   0   0   0  1  0
400  3  0   0   0   0  0  0
401  0  1   0   0   0  0  0
402  1  0   0   0   0  0  0
403  2  0   0   0   0  1  0
404  3  0   0   0   0  0  0
405  0  1   0   0   0  0  0
406  1  0   0   0   0  0  0
407  2  0   0   0   0  1  0
408  3  0   0   0   0  0  0
409  0  1   0   0   0  0  0
410  1  0   0   0   0  0  0
411  2  0   0   0   0  1  0
412  3  0   0   0   0  0  0
413  0  1   0   0   0  0  0
414  1  0   0   0   0  0  0
415  2  0   0   0   0  1  0
416  3  0   0   0   0  0  0
417  0  1   0   0   0  0  0
418  1  0   0   0   0  0  0
419  2  0   0   0   0  1  0
420  3  0   0   0   0  0  0
421  0  1   0   0   0  0  0
422  1  0   0   0   0  0  0
423  2  0   0   0   0  1  0
424  3  0   0   0   0  0  0
425  0  1   0   0   0  0  0
426  1  0   0   0   0  0  0
427  2  0   0   0   0  1  0
428  3  0   0   0   0  0  0
429  0  1   0   0   0  0  0
430  1  0   0   0   0  0  0
431  2  0   0   0   0  1  0
432  3  0   0   0   0  0  0
433  0  1   0   0   0  0  0
434  1  0   0   0   0  0  0
435  2  0   0   0   0  1  0
436  3  0   0   0   0  0  0
437  0  1   0   0   0  0  0
438  1  0   0   0   0  0  0
439  2  0   0   0   0  1  0
440  3  0   0   0   0  0  0
441  0  1   0   0   0  0  0
442  1  0   0   0   0  0  0
443  2  0   0   0   0  1  0
444  3  0   0   0   0  0  0
445  0  1   0   0   0  0  0
446  1  0   0   0   0  0  0
447  2  0   0   0   0  1  0
448  3  0   0   0   0  0  0
449  0  1   0   0   0  0  0
450  1  0   0   0   0  0  0
451  2  0   0   0   0  1  0
452  3  0   0   0   0  0  0
453  0  1   0   0   0  0  0
454  1  0   0   0   0  0  0
455  2  0   0   0   0  1  0
456  3  0   0   0   0  0  0
457  0  1   0   0   0  0  0
458  1  0   0   0   0  0  0
459  2  0   0   0   0  1  0
460  3  0   0   0   0  0  0
461  0  1   0   0   0  0  0
462  1  0   0   0   0  0  0
463  2  0   0   0   0  1  0
464  3  0   0   0   0  0  0
465  0  1   0   0   0  0  0
466  1  0   0   0   0  0  0
467  2  0   0   0   0  1  0
468  3  0   0   0   0  0  0
469  0  1   0   0   0  0  0
470  1  0   0   0   0  0  0
471  2  0   0   0   0  1  0
472  3  0   0   0   0  0  0
473  0  1   0   0   0  0  0
474  1  0   0   0   0  0  0
475  2  0   0   0   0  1  0
476  3  0   0   0   0  0  0
477  0  1   0   0   0  0  0
478  1  0   0   0   0  0  0
479  2  0   0   0   0  1  0
480  3  0   0   0   0  0  0
481  0  1   0   0   0  0  0
482  1  0   0   0   0  0  0
483  2  0   0   0   0  1  0
484  3  0   0   0   0  0  0
485  0  1   0   0   0  0  0
486  1  0   0   0   0  0  0
487  2  0   0   0   0  1  0
488  3  0   0   0   0  0  0
489  0  1   0   0   0  0  0
490  1  0   0   0   0  0  0
491  2  0   0   0   0  1  0
492  3  0   0   0   0  0  0
493  0  1   0   0   0  0  0
494  1  0   0   0   0  0  0
495  2  0   0   0   0  1  0
496  3  0   0   0   0  0  0
497  0  1   0   0   0  0  0
498  1  0   0   0   0  0  0
499  2  0   0   0   0  1  0
500  3  0   0   0   0  0  0
501  0  1   0   0   0  0  0
502  1  0   0   0   0  0  0
503  2  0   0   0   0  1  0
504  3  0   0   0   0  0  0
505  0  1   0   0   0  0  0
506  1  0   0   0   0  0  0
507  2  0   0   0   0  1  0
508  3  0   0   0   0  0  0
509  0  1   0   0   0  0  0
510  1  0   0   0   0  0  0
511  2  0   0   0   0  1  0
512  3  0   0   0   0  0  0

# Format of RF events:
# id amplitude mag_id phase_id delay freq phase
# ..        Hz   ....     ....    us   Hz   rad
[RF]
1         2500 1 2 100 0 0

# Format of ADC events:
# id num dwell delay freq phase
# ..  ..    ns    us   Hz   rad
[ADC]
1 256 12500 20 0 0

# Format of delays:
# id delay (us)
[DELAYS]
1 20000
2 3240
3 1000000

# Sequence Shapes
[SHAPES]

shape_id 1
num_samples 130
1
0
0
97
-1
0
0
27

shape_id 2
num_samples 130
0
0
128

