# Pulseq sequence file
# Created by MATLAB mr toolbox

[VERSION]
major 1
minor 3
revision 0

[DEFINITIONS]
FOV 0.25 0.25 0.003 
Name ute 

# Format of blocks:
#  #  D RF  GX  GY  GZ ADC EXT
[BLOCKS]
1  0  1   0   0   1  0  0
2  0  0   2   3   4  0  0
3  0  0   5   6   0  1  0
4  1  0   7   8   0  0  0
5  0  2   0   0   9  0  0
6  0  0   2   3  10  0  0
7  0  0   5   6   0  2  0
8  1  0   7   8   0  0  0

# Format of RF events:
# id amplitude mag_id phase_id delay freq phase
# ..        Hz   ....     ....    us   Hz   rad
[RF]
1      160.822 1 2 160 0 0
2      160.822 1 2 160 0 2.04204

# Format of trapezoid gradients:
# id amplitude rise flat fall delay
# ..      Hz/m   us   us   us    us
[TRAP]
 1      -666667 160 1000 160   0
 2     -4166.67  10    0  10 220
 3           -0  10    0  10 220
 4       444444 120    0 120   0
 5      8333.33  10 2400  10   0
 6            0  10 2400  10   0
 7       100000  40    0  40   0
 8            0  40    0  40   0
 9       666667 160 1000 160   0
10      -444444 120    0 120   0

# Format of ADC events:
# id num dwell delay freq phase
# ..  ..    ns    us   Hz   rad
[ADC]
1 10 240000 10 0 0
2 10 240000 10 0 2.04204

# Format of delays:
# id delay (us)
[DELAYS]
1 6020

# Sequence Shapes
[SHAPES]

shape_id 1
num_samples 1020
0.001001
0.0010029
0.0010047
0.0010064
0.0010081
0.0010095
0.0010111
0.0010123
0.0010136
0.0010148
0.0010158
0.0010168
0.0010177
0.0010184
0.001019
0.0010197
0.0010201
0.0010206
0.0010208
0.0010209
0.0010211
0.0010211
0
0.0010209
0.0010208
0.0010204
0.0010201
0.0010195
0.0010189
0.0010183
0.0010174
0.0010166
0.0010155
0.0010145
0.0010133
0.001012
0.0010106
0.0010091
0.0010075
0.0010059
0.0010041
0.0010022
0.0010002
0.0009981
0.000996
0.0009937
0.0009914
0.0009889
0.0009863
0.0009837
0.0009809
0.0009781
0.0009751
0.0009721
0.0009689
0.0009658
0.0009624
0.000959
0.0009554
0.0009519
0.0009482
0.0009444
0.0009405
0.0009365
0.0009324
0.0009283
0.000924
0.0009197
0.0009153
0.0009107
0.0009062
0.0009014
0.0008966
0.0008918
0.0008868
0.0008817
0.0008766
0.0008714
0.0008661
0.0008607
0.0008552
0.0008496
0.0008441
0.0008383
0.0008324
0.0008266
0.0008207
0.0008146
0.0008085
0.0008022
0.000796
0.0007897
0.0007832
0.0007767
0.0007701
0.0007634
0.0007568
0.0007499
0.0007431
0.0007361
0.0007292
0.000722
0.0007149
0.0007077
0.0007004
0.000693
0.0006857
0.0006782
0.0006706
0.000663
0.0006554
0.0006476
0.0006399
0.0006321
0.0006241
0.0006162
0.0006082
0.0006001
0.000592
0.0005838
0.0005756
0.0005674
0.000559
0.0005506
0.0005423
0.0005337
0.0005253
0.0005167
0.0005081
0.0004995
0.0004908
0.0004821
0.0004733
0.0004645
0.0004557
0.0004468
0.0004378
0.000429
0.00042
0.0004109
0.000402
0.0003928
0.0003838
0.0003746
0.0003655
0.0003564
0.0003471
0.0003379
0.0003286
0.0003194
0.0003101
0.0003008
0.0002915
0.0002822
0.0002728
0.0002634
0.0002541
0.0002447
0.0002353
0.0002259
0.0002164
0.0002071
0.0001976
0.0001881
0.0001788
0.0001693
0.0001599
0.0001504
0.000141
0.0001316
0.0001221
0.0001127
0.0001033
9.38e-05
8.45e-05
7.51e-05
6.57e-05
5.63e-05
4.7e-05
3.76e-05
2.83e-05
1.89e-05
9.7e-06
4e-07
-8.8e-06
-1.81e-05
-2.73e-05
-3.65e-05
-4.57e-05
-5.48e-05
-6.39e-05
-7.3e-05
-8.2e-05
-9.11e-05
-0.0001001
-0.000109
-0.000118
-0.0001268
-0.0001358
-0.0001445
-0.0001533
-0.0001621
-0.0001708
-0.0001794
-0.0001881
-0.0001966
-0.0002052
-0.0002136
-0.0002222
-0.0002305
-0.0002388
-0.0002472
-0.0002554
-0.0002636
-0.0002717
-0.0002798
-0.0002879
-0.0002959
-0.0003037
-0.0003117
-0.0003194
-0.0003272
-0.0003349
-0.0003425
-0.0003501
-0.0003576
-0.0003651
-0.0003724
-0.0003797
-0.000387
-0.0003941
-0.0004013
-0.0004083
-0.0004153
-0.0004221
-0.0004291
-0.0004357
-0.0004425
-0.000449
-0.0004556
-0.0004621
-0.0004684
-0.0004748
-0.000481
-0.0004871
-0.0004932
-0.0004992
-0.0005051
-0.000511
-0.0005167
-0.0005224
-0.000528
-0.0005335
-0.0005389
-0.0005442
-0.0005495
-0.0005547
-0.0005597
-0.0005648
-0.0005696
-0.0005745
-0.0005792
-0.0005838
-0.0005884
-0.0005929
-0.0005972
-0.0006015
-0.0006057
-0.0006098
-0.0006139
-0.0006177
-0.0006216
-0.0006253
-0.0006289
-0.0006325
-0.000636
-0.0006393
-0.0006426
-0.0006457
-0.0006489
-0.0006518
-0.0006547
-0.0006575
-0.0006602
-0.0006627
-0.0006653
-0.0006678
-0.00067
-0.0006722
-0.0006744
-0.0006764
-0.0006783
-0.0006802
-0.0006819
-0.0006835
-0.0006851
-0.0006865
-0.0006879
-0.0006892
-0.0006903
-0.0006913
-0.0006924
-0.0006932
-0.000694
-0.0006946
-0.0006953
-0.0006958
-0.0006961
-0.0006965
-0.0006966
-0.0006968
-0.0006968
0
-0.0006967
-0.0006965
-0.0006963
-0.000696
-0.0006955
-0.0006949
-0.0006943
-0.0006936
-0.0006928
-0.0006919
-0.0006909
-0.0006898
-0.0006886
-0.0006874
-0.000686
-0.0006846
-0.0006831
-0.0006814
-0.0006798
-0.000678
-0.0006761
-0.0006741
-0.0006722
-0.00067
-0.0006678
-0.0006655
-0.0006631
-0.0006607
-0.0006582
-0.0006556
-0.0006529
-0.0006501
-0.0006473
-0.0006444
-0.0006414
-0.0006383
-0.0006352
-0.000632
-0.0006287
-0.0006254
-0.0006219
-0.0006184
-0.0006149
-0.0006112
-0.0006076
-0.0006037
-0.0006
-0.000596
-0.0005921
-0.0005881
-0.000584
-0.0005799
-0.0005757
-0.0005714
-0.0005671
-0.0005627
-0.0005583
-0.0005539
-0.0005493
-0.0005447
-0.0005401
-0.0005354
-0.0005306
-0.0005259
-0.0005211
-0.0005162
-0.0005113
-0.0005064
-0.0005013
-0.0004963
-0.0004912
-0.0004862
-0.0004809
-0.0004758
-0.0004706
-0.0004653
-0.00046
-0.0004547
-0.0004494
-0.000444
-0.0004386
-0.0004332
-0.0004277
-0.0004223
-0.0004168
-0.0004113
-0.0004057
-0.0004002
-0.0003947
-0.000389
-0.0003835
-0.0003779
-0.0003722
-0.0003667
-0.000361
-0.0003554
-0.0003497
-0.0003441
-0.0003385
-0.0003328
-0.0003271
-0.0003216
-0.0003159
-0.0003102
-0.0003046
-0.000299
-0.0002934
-0.0002878
-0.0002822
-0.0002767
-0.0002711
-0.0002655
-0.00026
-0.0002545
-0.000249
-0.0002436
-0.0002381
-0.0002327
-0.0002273
-0.000222
-0.0002166
-0.0002114
-0.0002061
-0.0002008
-0.0001956
-0.0001905
-0.0001854
-0.0001803
-0.0001752
-0.0001702
-0.0001653
-0.0001604
-0.0001555
-0.0001507
-0.000146
-0.0001412
-0.0001365
-0.000132
-0.0001274
-0.0001229
-0.0001185
-0.0001141
-0.0001098
-0.0001055
-0.0001013
-9.73e-05
-9.31e-05
-8.92e-05
-8.52e-05
-8.14e-05
-7.76e-05
-7.4e-05
-7.02e-05
-6.68e-05
-6.32e-05
-5.99e-05
-5.65e-05
-5.33e-05
-5.02e-05
-4.7e-05
-4.41e-05
-4.12e-05
-3.84e-05
-3.57e-05
-3.3e-05
-3.05e-05
-2.8e-05
-2.57e-05
-2.35e-05
-2.12e-05
-1.92e-05
-1.73e-05
-1.54e-05
-1.36e-05
-1.19e-05
-1.04e-05
-8.9e-06
-7.6e-06
-6.4e-06
-5.2e-06
-4.2e-06
-3.2e-06
-2.5e-06
-1.8e-06
-1.1e-06
-8e-07
-3e-07
-2e-07
0
0
0
2e-07
3e-07
8e-07
1.2e-06
1.8e-06
2.6e-06
3.4e-06
4.3e-06
5.5e-06
6.7e-06
8.1e-06
9.6e-06
1.11e-05
1.29e-05
1.48e-05
1.68e-05
1.89e-05
2.12e-05
2.36e-05
2.62e-05
2.88e-05
3.16e-05
3.46e-05
3.77e-05
4.08e-05
4.43e-05
4.77e-05
5.13e-05
5.52e-05
5.9e-05
6.31e-05
6.73e-05
7.16e-05
7.61e-05
8.07e-05
8.54e-05
9.04e-05
9.54e-05
0.0001006
0.0001059
0.0001114
0.0001171
0.0001228
0.0001286
0.0001348
0.0001409
0.0001473
0.0001538
0.0001604
0.0001672
0.0001741
0.0001811
0.0001884
0.0001958
0.0002032
0.0002109
0.0002187
0.0002266
0.0002348
0.0002429
0.0002513
0.0002599
0.0002685
0.0002774
0.0002863
0.0002954
0.0003046
0.000314
0.0003236
0.0003332
0.0003431
0.000353
0.0003631
0.0003734
0.0003837
0.0003943
0.0004049
0.0004158
0.0004267
0.0004378
0.000449
0.0004603
0.0004719
0.0004835
0.0004953
0.0005072
0.0005192
0.0005314
0.0005437
0.0005562
0.0005687
0.0005814
0.0005943
0.0006072
0.0006204
0.0006335
0.0006469
0.0006604
0.000674
0.0006877
0.0007016
0.0007155
0.0007297
0.0007438
0.0007582
0.0007726
0.0007873
0.0008018
0.0008167
0.0008317
0.0008466
0.0008618
0.000877
0.0008924
0.0009079
0.0009235
0.0009391
0.0009549
0.0009708
0.0009868
0.001003
0.0010191
0.0010353
0.0010518
0.0010683
0.0010848
0.0011015
0.0011183
0.0011352
0.001152
0.0011691
0.0011862
0.0012034
0.0012207
0.0012381
0.0012554
0.001273
0.0012906
0.0013082
0.001326
0.0013438
0.0013617
0.0013796
0.0013976
0.0014157
0.0014339
0.001452
0.0014703
0.0014886
0.001507
0.0015254
0.0015439
0.0015624
0.0015809
0.0015996
0.0016183
0.001637
0.0016557
0.0016745
0.0016933
0.0017122
0.0017311
0.00175
0.001769
0.0017879
0.001807
0.001826
0.001845
0.0018641
0.0018832
0.0019023
0.0019214
0.0019406
0.0019597
0.0019788
0.001998
0.0020171
0.0020363
0.0020555
0.0020746
0.0020937
0.0021129
0.002132
0.0021512
0.0021702
0.0021893
0.0022084
0.0022275
0.0022465
0.0022655
0.0022845
0.0023034
0.0023224
0.0023412
0.0023601
0.0023789
0.0023977
0.0024164
0.0024351
0.0024538
0.0024724
0.0024909
0.0025094
0.0025278
0.0025463
0.0025646
0.0025828
0.002601
0.0026192
0.0026373
0.0026552
0.0026732
0.002691
0.0027088
0.0027265
0.0027442
0.0027616
0.0027791
0.0027965
0.0028138
0.0028309
0.0028481
0.002865
0.0028819
0.0028988
0.0029154
0.002932
0.0029485
0.0029649
0.0029811
0.0029973
0.0030133
0.0030293
0.0030451
0.0030607
0.0030763
0.0030917
0.003107
0.0031222
0.0031373
0.0031522
0.0031669
0.0031816
0.0031961
0.0032104
0.0032246
0.0032387
0.0032527
0.0032664
0.00328
0.0032935
0.0033068
0.00332
0.0033329
0.0033458
0.0033584
0.003371
0.0033833
0.0033955
0.0034074
0.0034193
0.003431
0.0034424
0.0034537
0.0034649
0.0034758
0.0034865
0.0034972
0.0035075
0.0035177
0.0035277
0.0035375
0.0035472
0.0035566
0.0035658
0.0035749
0.0035837
0.0035923
0.0036008
0.003609
0.0036171
0.0036248
0.0036325
0.0036399
0.003647
0.0036541
0.0036608
0.0036673
0.0036737
0.0036798
0.0036857
0.0036913
0.0036968
0.003702
0.0037071
0.0037118
0.0037164
0.0037206
0.0037248
0.0037287
0.0037322
0.0037357
0.0037388
0.0037418
0.0037445
0.0037469
0.0037491
0.0037511
0.0037529
0.0037543
0.0037557
0.0037566
0.0037574
0.0037579
0.0037583
0.0037582
0.0037581
0.0037576
0.0037569
0.003756
0.0037547
0.0037533
0.0037516
0.0037497
0.0037474
0.003745
0.0037423
0.0037394
0.0037361
0.0037327
0.0037289
0.003725
0.0037207
0.0037163
0.0037115
0.0037065
0.0037013
0.0036957
0.00369
0.0036839
0.0036777
0.0036712
0.0036643
0.0036573
0.00365
0.0036424
0.0036346
0.0036265
0.0036182
0.0036096
0.0036007
0.0035916
0.0035823
0.0035726
0.0035628
0.0035526
0.0035422
0.0035316
0.0035206
0.0035095
0.0034981
0.0034864
0.0034745
0.0034624
0.0034499
0.0034372
0.0034243
0.0034111
0.0033976
0.003384
0.00337
0.0033559
0.0033414
0.0033267
0.0033119
0.0032966
0.0032812
0.0032656
0.0032496
0.0032335
0.0032171
0.0032005
0.0031836
0.0031665
0.0031491
0.0031315
0.0031137
0.0030957
0.0030773
0.0030589
0.00304
0.0030211
0.0030018
0.0029824
0.0029628
0.0029428
0.0029227
0.0029023
0.0028818
0.002861
0.0028399
0.0028188
0.0027973
0.0027756
0.0027537
0.0027317
0.0027093
0.0026869
0.0026641
0.0026412
0.0026181
0.0025947
0.0025712
0.0025475
0.0025235
0.0024994
0.0024751
0.0024506
0.0024259
0.002401
0.0023759
0.0023506
0.0023252
0.0022995
0.0022738
0.0022477
0.0022216
0.0021952
0.0021687
0.002142
0.0021152
0.0020881
0.0020609
0.0020336
0.0020061
0.0019785
0.0019505
0.0019227
0.0018945
0.0018662
0.0018377
0.0018092
0.0017805
0.0017516
0.0017227
0.0016934
0.0016643
0.0016348
0.0016053
0.0015756
0.0015458
0.001516
0.0014859
0.0014557
0.0014255
0.0013951
0.0013646
0.001334
0.0013034
0.0012725
0.0012416
0.0012105
0.0011795
0.0011483
0.001117
0.0010856
0.0010541
0.0010226
0.0009909
0.0009593
0.0009274
0.0008955
0.0008637
0.0008316
0.0007995
0.0007674
0.0007352
0.000703
0.0006706
0.0006383
0.0006058
0.0005734
0.0005408
0.0005083
0.0004757
0.000443
0.0004104
0.0003776
0.000345
0.0003121
0.0002794
0.0002465
0.0002138
0.0001808
0.000148
0.0001152
8.22e-05
4.94e-05
1.64e-05
-1
0
0
17

shape_id 2
num_samples 1020
0.5
0
0
496
-0.5
0
0
518

