# Pulseq sequence file
# Created by MATLAB mr toolbox

[VERSION]
major 1
minor 3
revision 0

[DEFINITIONS]
FOV 0.25 0.25 0.003 
Name ute_rs 
TotalDuration 1.51164 

# Format of blocks:
#  #  D RF  GX  GY  GZ ADC EXT
[BLOCKS]
   1  0  1   2   3   1  0  0
   2  1  0   0   0   0  0  0
   3  0  2   2   3   4  0  0
   4  1  0   0   0   0  0  0
   5  0  3   5   6   1  0  0
   6  1  0   0   0   0  0  0
   7  0  4   5   6   4  0  0
   8  1  0   0   0   0  0  0
   9  0  5   7   8   1  0  0
  10  1  0   0   0   0  0  0
  11  0  6   7   8   4  0  0
  12  1  0   0   0   0  0  0
  13  0  7   9  10   1  0  0
  14  1  0   0   0   0  0  0
  15  0  8   9  10   4  0  0
  16  1  0   0   0   0  0  0
  17  0  9  11  12   1  0  0
  18  1  0   0   0   0  0  0
  19  0 10  11  12   4  0  0
  20  1  0   0   0   0  0  0
  21  0  6  13  14   1  0  0
  22  1  0   0   0   0  0  0
  23  0 11  13  14   4  0  0
  24  1  0   0   0   0  0  0
  25  0 12  15  16   1  0  0
  26  1  0   0   0   0  0  0
  27  0 13  15  16   4  0  0
  28  1  0   0   0   0  0  0
  29  0 14  17  18   1  0  0
  30  1  0   0   0   0  0  0
  31  0  1  17  18   4  0  0
  32  1  0   0   0   0  0  0
  33  0 15  19  20   1  0  0
  34  1  0   0   0   0  0  0
  35  0 16  19  20   4  0  0
  36  1  0   0   0   0  0  0
  37  0 13  21  22   1  0  0
  38  1  0   0   0   0  0  0
  39  0 17  21  22   4  0  0
  40  1  0   0   0   0  0  0
  41  0  5  23  24   1  0  0
  42  1  0   0   0   0  0  0
  43  0 18  23  24   4  0  0
  44  1  0   0   0   0  0  0
  45  0 19  25  26   1  0  0
  46  1  0   0   0   0  0  0
  47  0  9  25  26   4  0  0
  48  1  0   0   0   0  0  0
  49  0 20  27  28   1  0  0
  50  1  0   0   0   0  0  0
  51  0 10  27  28   4  0  0
  52  1  0   0   0   0  0  0
  53  0 18  29  30   1  0  0
  54  1  0   0   0   0  0  0
  55  0 21  29  30   4  0  0
  56  1  0   0   0   0  0  0
  57  0  4  31  32   1  0  0
  58  1  0   0   0   0  0  0
  59  0 22  31  32   4  0  0
  60  1  0   0   0   0  0  0
  61  0 14  33  34   1  0  0
  62  1  0   0   0   0  0  0
  63  0 15  33  34   4  0  0
  64  1  0   0   0   0  0  0
  65  0 23  35  36   1  0  0
  66  1  0   0   0   0  0  0
  67  0  2  35  36   4  0  0
  68  1  0   0   0   0  0  0
  69  0 22  37  38   1  0  0
  70  1  0   0   0   0  0  0
  71  0 17  37  38   4  0  0
  72  1  0   0   0   0  0  0
  73  0 11  39  40   1  0  0
  74  1  0   0   0   0  0  0
  75  0 24  39  40   4  0  0
  76  1  0   0   0   0  0  0
  77  0  7  41  42   1  0  0
  78  1  0   0   0   0  0  0
  79  0 20  41  42   4  0  0
  80  1  0   0   0   0  0  0
  81  0 20  43  44   1  0  0
  82  1  0   0   0   0  0  0
  83  0  7  43  44   4  0  0
  84  1  0   0   0   0  0  0
  85  0 24  45  46   1  1  0
  86  1  0   0   0   0  0  0
  87  0 11  45  46   4  2  0
  88  1  0   0   0   0  0  0
  89  0 17  43  47   1  3  0
  90  1  0   0   0   0  0  0
  91  0 22  43  47   4  4  0
  92  1  0   0   0   0  0  0
  93  0  2  41  48   1  5  0
  94  1  0   0   0   0  0  0
  95  0 23  41  48   4  6  0
  96  1  0   0   0   0  0  0
  97  0 15  39  49   1  7  0
  98  1  0   0   0   0  0  0
  99  0 14  39  49   4  8  0
 100  1  0   0   0   0  0  0
 101  0 22  37  50   1  4  0
 102  1  0   0   0   0  0  0
 103  0  4  37  50   4  9  0
 104  1  0   0   0   0  0  0
 105  0 21  35  51   1 10  0
 106  1  0   0   0   0  0  0
 107  0 18  35  51   4 11  0
 108  1  0   0   0   0  0  0
 109  0 10  33  52   1 12  0
 110  1  0   0   0   0  0  0
 111  0 20  33  52   4 13  0
 112  1  0   0   0   0  0  0
 113  0  9  31  53   1 14  0
 114  1  0   0   0   0  0  0
 115  0 19  31  53   4 15  0
 116  1  0   0   0   0  0  0
 117  0 18  29  54   1 11  0
 118  1  0   0   0   0  0  0
 119  0  5  29  54   4 16  0
 120  1  0   0   0   0  0  0
 121  0 17  27  55   1  3  0
 122  1  0   0   0   0  0  0
 123  0 13  27  55   4 17  0
 124  1  0   0   0   0  0  0
 125  0 16  25  56   1 18  0
 126  1  0   0   0   0  0  0
 127  0 15  25  56   4  7  0
 128  1  0   0   0   0  0  0
 129  0  1  23  57   1 19  0
 130  1  0   0   0   0  0  0
 131  0 14  23  57   4  8  0
 132  1  0   0   0   0  0  0
 133  0 13  21  58   1 17  0
 134  1  0   0   0   0  0  0
 135  0 12  21  58   4 20  0
 136  1  0   0   0   0  0  0
 137  0 11  19  59   1  2  0
 138  1  0   0   0   0  0  0
 139  0  6  19  59   4 21  0
 140  1  0   0   0   0  0  0
 141  0 10  17  60   1 12  0
 142  1  0   0   0   0  0  0
 143  0  9  17  60   4 14  0
 144  1  0   0   0   0  0  0
 145  0  8  15  61   1 22  0
 146  1  0   0   0   0  0  0
 147  0  7  15  61   4 23  0
 148  1  0   0   0   0  0  0
 149  0  6  13  62   1 21  0
 150  1  0   0   0   0  0  0
 151  0  5  13  62   4 16  0
 152  1  0   0   0   0  0  0
 153  0  4  11  63   1  9  0
 154  1  0   0   0   0  0  0
 155  0  3  11  63   4 24  0
 156  1  0   0   0   0  0  0
 157  0  2   9  64   1  5  0
 158  1  0   0   0   0  0  0
 159  0  1   9  64   4 19  0
 160  1  0   0   0   0  0  0
 161  0  1   7  65   1 19  0
 162  1  0   0   0   0  0  0
 163  0  2   7  65   4  5  0
 164  1  0   0   0   0  0  0
 165  0  3   5  66   1 24  0
 166  1  0   0   0   0  0  0
 167  0  4   5  66   4  9  0
 168  1  0   0   0   0  0  0
 169  0  5   2  67   1 16  0
 170  1  0   0   0   0  0  0
 171  0  6   2  67   4 21  0
 172  1  0   0   0   0  0  0
 173  0  7  68  69   1 23  0
 174  1  0   0   0   0  0  0
 175  0  8  68  69   4 22  0
 176  1  0   0   0   0  0  0
 177  0  9  70  71   1 14  0
 178  1  0   0   0   0  0  0
 179  0 10  70  71   4 12  0
 180  1  0   0   0   0  0  0
 181  0  6  72  73   1 21  0
 182  1  0   0   0   0  0  0
 183  0 11  72  73   4  2  0
 184  1  0   0   0   0  0  0
 185  0 12  74  75   1 20  0
 186  1  0   0   0   0  0  0
 187  0 13  74  75   4 17  0
 188  1  0   0   0   0  0  0
 189  0 14  76  77   1  8  0
 190  1  0   0   0   0  0  0
 191  0  1  76  77   4 19  0
 192  1  0   0   0   0  0  0
 193  0 15  78  79   1  7  0
 194  1  0   0   0   0  0  0
 195  0 16  78  79   4 18  0
 196  1  0   0   0   0  0  0
 197  0 13  80  81   1 17  0
 198  1  0   0   0   0  0  0
 199  0 17  80  81   4  3  0
 200  1  0   0   0   0  0  0
 201  0  5  82  83   1 16  0
 202  1  0   0   0   0  0  0
 203  0 18  82  83   4 11  0
 204  1  0   0   0   0  0  0
 205  0 19  84  85   1 15  0
 206  1  0   0   0   0  0  0
 207  0  9  84  85   4 14  0
 208  1  0   0   0   0  0  0
 209  0 20  86  87   1 13  0
 210  1  0   0   0   0  0  0
 211  0 10  86  87   4 12  0
 212  1  0   0   0   0  0  0
 213  0 18  88  89   1 11  0
 214  1  0   0   0   0  0  0
 215  0 21  88  89   4 10  0
 216  1  0   0   0   0  0  0
 217  0  4  90  91   1  9  0
 218  1  0   0   0   0  0  0
 219  0 22  90  91   4  4  0
 220  1  0   0   0   0  0  0
 221  0 14  92  93   1  8  0
 222  1  0   0   0   0  0  0
 223  0 15  92  93   4  7  0
 224  1  0   0   0   0  0  0
 225  0 23  94  95   1  6  0
 226  1  0   0   0   0  0  0
 227  0  2  94  95   4  5  0
 228  1  0   0   0   0  0  0
 229  0 22  96  97   1  4  0
 230  1  0   0   0   0  0  0
 231  0 17  96  97   4  3  0
 232  1  0   0   0   0  0  0
 233  0 11  98  99   1  2  0
 234  1  0   0   0   0  0  0
 235  0 24  98  99   4  1  0
 236  1  0   0   0   0  0  0
 237  0  7 100 101   1 23  0
 238  1  0   0   0   0  0  0
 239  0 20 100 101   4 13  0
 240  1  0   0   0   0  0  0
 241  0 20 102 103   1 13  0
 242  1  0   0   0   0  0  0
 243  0  7 102 103   4 23  0
 244  1  0   0   0   0  0  0
 245  0 24 104 105   1  1  0
 246  1  0   0   0   0  0  0
 247  0 11 104 105   4  2  0
 248  1  0   0   0   0  0  0
 249  0 17 106 107   1  3  0
 250  1  0   0   0   0  0  0
 251  0 22 106 107   4  4  0
 252  1  0   0   0   0  0  0
 253  0  2 108 109   1  5  0
 254  1  0   0   0   0  0  0
 255  0 23 108 109   4  6  0
 256  1  0   0   0   0  0  0
 257  0 15 110 111   1  7  0
 258  1  0   0   0   0  0  0
 259  0 14 110 111   4  8  0
 260  1  0   0   0   0  0  0
 261  0 22 112 113   1  4  0
 262  1  0   0   0   0  0  0
 263  0  4 112 113   4  9  0
 264  1  0   0   0   0  0  0
 265  0 21 114 115   1 10  0
 266  1  0   0   0   0  0  0
 267  0 18 114 115   4 11  0
 268  1  0   0   0   0  0  0
 269  0 10 116 117   1 12  0
 270  1  0   0   0   0  0  0
 271  0 20 116 117   4 13  0
 272  1  0   0   0   0  0  0
 273  0  9 118 119   1 14  0
 274  1  0   0   0   0  0  0
 275  0 19 118 119   4 15  0
 276  1  0   0   0   0  0  0
 277  0 18 120 121   1 11  0
 278  1  0   0   0   0  0  0
 279  0  5 120 121   4 16  0
 280  1  0   0   0   0  0  0
 281  0 17 122 123   1  3  0
 282  1  0   0   0   0  0  0
 283  0 13 122 123   4 17  0
 284  1  0   0   0   0  0  0
 285  0 16 124 125   1 18  0
 286  1  0   0   0   0  0  0
 287  0 15 124 125   4  7  0
 288  1  0   0   0   0  0  0
 289  0  1 126 127   1 19  0
 290  1  0   0   0   0  0  0
 291  0 14 126 127   4  8  0
 292  1  0   0   0   0  0  0
 293  0 13 128 129   1 17  0
 294  1  0   0   0   0  0  0
 295  0 12 128 129   4 20  0
 296  1  0   0   0   0  0  0
 297  0 11 130 131   1  2  0
 298  1  0   0   0   0  0  0
 299  0  6 130 131   4 21  0
 300  1  0   0   0   0  0  0
 301  0 10 132 133   1 12  0
 302  1  0   0   0   0  0  0
 303  0  9 132 133   4 14  0
 304  1  0   0   0   0  0  0
 305  0  8 134 135   1 22  0
 306  1  0   0   0   0  0  0
 307  0  7 134 135   4 23  0
 308  1  0   0   0   0  0  0
 309  0  6 136 137   1 21  0
 310  1  0   0   0   0  0  0
 311  0  5 136 137   4 16  0
 312  1  0   0   0   0  0  0
 313  0  4 138 139   1  9  0
 314  1  0   0   0   0  0  0
 315  0  3 138 139   4 24  0
 316  1  0   0   0   0  0  0
 317  0  2 140 141   1  5  0
 318  1  0   0   0   0  0  0
 319  0  1 140 141   4 19  0
 320  1  0   0   0   0  0  0
 321  0  1 142 143   1 19  0
 322  1  0   0   0   0  0  0
 323  0  2 142 143   4  5  0
 324  1  0   0   0   0  0  0
 325  0  3 144 145   1 24  0
 326  1  0   0   0   0  0  0
 327  0  4 144 145   4  9  0
 328  1  0   0   0   0  0  0
 329  0  5 146 147   1 16  0
 330  1  0   0   0   0  0  0
 331  0  6 146 147   4 21  0
 332  1  0   0   0   0  0  0
 333  0  7 148 149   1 23  0
 334  1  0   0   0   0  0  0
 335  0  8 148 149   4 22  0
 336  1  0   0   0   0  0  0
 337  0  9 150 151   1 14  0
[RF]
1       445.35 1 2 140 0 0
2       445.35 1 2 140 0 2.04204
3       445.35 1 2 140 0 6.12611
4       445.35 1 2 140 0 5.96903
5       445.35 1 2 140 0 1.5708
6       445.35 1 2 140 0 5.49779
7       445.35 1 2 140 0 5.18363
8       445.35 1 2 140 0 0.628319
9       445.35 1 2 140 0 4.39823
10       445.35 1 2 140 0 3.92699
11       445.35 1 2 140 0 2.82743
12       445.35 1 2 140 0 2.19911
13       445.35 1 2 140 0 3.61283
14       445.35 1 2 140 0 0.785398
15       445.35 1 2 140 0 1.25664
16       445.35 1 2 140 0 4.55531
17       445.35 1 2 140 0 4.71239
18       445.35 1 2 140 0 0.471239
19       445.35 1 2 140 0 1.41372
20       445.35 1 2 140 0 3.14159
21       445.35 1 2 140 0 5.34071
22       445.35 1 2 140 0 2.35619
23       445.35 1 2 140 0 3.76991
24       445.35 1 2 140 0 2.98451

# Format of trapezoid gradients:
# id amplitude rise flat fall delay
# ..      Hz/m   us   us   us    us
[TRAP]
 1      -666667 140  930 140   0
 2       902599 200  520 200 1280
 3      -393424 200  520 200 1280
 4       666667 140  930 140   0
 5       910126 200  520 200 1280
 6      -375683 200  520 200 1280
 7       917305 200  520 200 1280
 8      -357797 200  520 200 1280
 9       924132 200  520 200 1280
10      -339775 200  520 200 1280
11       930606 200  520 200 1280
12      -321622 200  520 200 1280
13       936722 200  520 200 1280
14      -303346 200  520 200 1280
15       942480 200  520 200 1280
16      -284954 200  520 200 1280
17       947877 200  520 200 1280
18      -266453 200  520 200 1280
19       952910 200  520 200 1280
20      -247849 200  520 200 1280
21       957579 200  520 200 1280
22      -229151 200  520 200 1280
23       961880 200  520 200 1280
24      -210365 200  520 200 1280
25       965814 200  520 200 1280
26      -191498 200  520 200 1280
27       969377 200  520 200 1280
28      -172558 200  520 200 1280
29       972568 200  520 200 1280
30      -153552 200  520 200 1280
31       975387 200  520 200 1280
32      -134487 200  520 200 1280
33       977833 200  520 200 1280
34      -115370 200  520 200 1280
35       979904 200  520 200 1280
36     -96209.5 200  520 200 1280
37       981599 200  520 200 1280
38     -77011.9 200  520 200 1280
39       982918 200  520 200 1280
40     -57784.7 200  520 200 1280
41       983861 200  520 200 1280
42     -38535.5 200  520 200 1280
43       984427 200  520 200 1280
44     -19271.4 200  520 200 1280
45       984615 200  520 200 1280
46            0 200  520 200 1280
47      19271.4 200  520 200 1280
48      38535.5 200  520 200 1280
49      57784.7 200  520 200 1280
50      77011.9 200  520 200 1280
51      96209.5 200  520 200 1280
52       115370 200  520 200 1280
53       134487 200  520 200 1280
54       153552 200  520 200 1280
55       172558 200  520 200 1280
56       191498 200  520 200 1280
57       210365 200  520 200 1280
58       229151 200  520 200 1280
59       247849 200  520 200 1280
60       266453 200  520 200 1280
61       284954 200  520 200 1280
62       303346 200  520 200 1280
63       321622 200  520 200 1280
64       339775 200  520 200 1280
65       357797 200  520 200 1280
66       375683 200  520 200 1280
67       393424 200  520 200 1280
68       894726 200  520 200 1280
69       411015 200  520 200 1280
70       886510 200  520 200 1280
71       428448 200  520 200 1280
72       877954 200  520 200 1280
73       445718 200  520 200 1280
74       869062 200  520 200 1280
75       462816 200  520 200 1280
76       859837 200  520 200 1280
77       479737 200  520 200 1280
78       850283 200  520 200 1280
79       496474 200  520 200 1280
80       840403 200  520 200 1280
81       513022 200  520 200 1280
82       830200 200  520 200 1280
83       529372 200  520 200 1280
84       819680 200  520 200 1280
85       545520 200  520 200 1280
86       808846 200  520 200 1280
87       561458 200  520 200 1280
88       797702 200  520 200 1280
89       577182 200  520 200 1280
90       786252 200  520 200 1280
91       592685 200  520 200 1280
92       774501 200  520 200 1280
93       607960 200  520 200 1280
94       762454 200  520 200 1280
95       623002 200  520 200 1280
96       750114 200  520 200 1280
97       637806 200  520 200 1280
98       737487 200  520 200 1280
99       652366 200  520 200 1280
100       724577 200  520 200 1280
101       666675 200  520 200 1280
102       711389 200  520 200 1280
103       680729 200  520 200 1280
104       697930 200  520 200 1280
105       694523 200  520 200 1280
106       684202 200  520 200 1280
107       708050 200  520 200 1280
108       670213 200  520 200 1280
109       721306 200  520 200 1280
110       655967 200  520 200 1280
111       734285 200  520 200 1280
112       641469 200  520 200 1280
113       746984 200  520 200 1280
114       626726 200  520 200 1280
115       759396 200  520 200 1280
116       611743 200  520 200 1280
117       771517 200  520 200 1280
118       596525 200  520 200 1280
119       783342 200  520 200 1280
120       581079 200  520 200 1280
121       794868 200  520 200 1280
122       565410 200  520 200 1280
123       806089 200  520 200 1280
124       549524 200  520 200 1280
125       817001 200  520 200 1280
126       533428 200  520 200 1280
127       827600 200  520 200 1280
128       517128 200  520 200 1280
129       837882 200  520 200 1280
130       500629 200  520 200 1280
131       847843 200  520 200 1280
132       483939 200  520 200 1280
133       857479 200  520 200 1280
134       467063 200  520 200 1280
135       866787 200  520 200 1280
136       450009 200  520 200 1280
137       875762 200  520 200 1280
138       432781 200  520 200 1280
139       884402 200  520 200 1280
140       415389 200  520 200 1280
141       892704 200  520 200 1280
142       397836 200  520 200 1280
143       900663 200  520 200 1280
144       380132 200  520 200 1280
145       908277 200  520 200 1280
146       362282 200  520 200 1280
147       915543 200  520 200 1280
148       344293 200  520 200 1280
149       922459 200  520 200 1280
150       326172 200  520 200 1280
151       929021 200  520 200 1280
152       307926 200  520 200 1280
153       935227 200  520 200 1280
154       289563 200  520 200 1280
155       941074 200  520 200 1280
156       271088 200  520 200 1280
157       946562 200  520 200 1280
158       252509 200  520 200 1280
159       951686 200  520 200 1280
160       233834 200  520 200 1280
161       956446 200  520 200 1280
162       215069 200  520 200 1280
163       960840 200  520 200 1280
164       196222 200  520 200 1280
165       964865 200  520 200 1280
166       177300 200  520 200 1280
167       968521 200  520 200 1280
168       158309 200  520 200 1280
169       971805 200  520 200 1280
170       139258 200  520 200 1280
171       974718 200  520 200 1280
172       120154 200  520 200 1280
173       977257 200  520 200 1280
174       101003 200  520 200 1280
175       979421 200  520 200 1280
176      81814.3 200  520 200 1280
177       981210 200  520 200 1280
178      62593.9 200  520 200 1280
179       982624 200  520 200 1280
180      43349.4 200  520 200 1280
181       983661 200  520 200 1280
182      24088.4 200  520 200 1280
183       984321 200  520 200 1280
184      4818.14 200  520 200 1280
185       984604 200  520 200 1280
186       -14454 200  520 200 1280
187       984509 200  520 200 1280
188     -33720.5 200  520 200 1280
189       984038 200  520 200 1280
190     -52974.2 200  520 200 1280
191       983189 200  520 200 1280
192     -72207.6 200  520 200 1280
193       981964 200  520 200 1280
194     -91413.3 200  520 200 1280
195       980363 200  520 200 1280
196      -110584 200  520 200 1280
197       978386 200  520 200 1280
198      -129712 200  520 200 1280
199       976034 200  520 200 1280
200      -148791 200  520 200 1280
201       973308 200  520 200 1280
202      -167812 200  520 200 1280
203       970209 200  520 200 1280
204      -186770 200  520 200 1280
205       966739 200  520 200 1280
206      -205656 200  520 200 1280
207       962898 200  520 200 1280
208      -224462 200  520 200 1280
209       958689 200  520 200 1280
210      -243183 200  520 200 1280
211       954112 200  520 200 1280
212      -261811 200  520 200 1280
213       949169 200  520 200 1280
214      -280339 200  520 200 1280
215       943863 200  520 200 1280
216      -298759 200  520 200 1280
217       938195 200  520 200 1280
218      -317064 200  520 200 1280
219       932168 200  520 200 1280
220      -335249 200  520 200 1280
221       925784 200  520 200 1280
222      -353304 200  520 200 1280
223       919045 200  520 200 1280
224      -371225 200  520 200 1280
225       911954 200  520 200 1280
226      -389003 200  520 200 1280
227       904513 200  520 200 1280
228      -406632 200  520 200 1280
229       896726 200  520 200 1280
230      -424105 200  520 200 1280
231       888596 200  520 200 1280
232      -441416 200  520 200 1280
233       880125 200  520 200 1280
234      -458558 200  520 200 1280
235       871316 200  520 200 1280
236      -475524 200  520 200 1280
237       862174 200  520 200 1280
238      -492308 200  520 200 1280
239       852702 200  520 200 1280
240      -508903 200  520 200 1280
241       842903 200  520 200 1280
242      -525303 200  520 200 1280
243       832781 200  520 200 1280
244      -541502 200  520 200 1280
245       822340 200  520 200 1280
246      -557494 200  520 200 1280
247       811584 200  520 200 1280
248      -573272 200  520 200 1280
249       800517 200  520 200 1280
250      -588830 200  520 200 1280
251       789143 200  520 200 1280
252      -604163 200  520 200 1280
253       777467 200  520 200 1280
254      -619264 200  520 200 1280
255       765493 200  520 200 1280
256      -634128 200  520 200 1280
257       753226 200  520 200 1280
258      -648749 200  520 200 1280
259       740670 200  520 200 1280
260      -663122 200  520 200 1280
261       727830 200  520 200 1280
262      -677240 200  520 200 1280
263       714712 200  520 200 1280
264      -691099 200  520 200 1280
265       701320 200  520 200 1280
266      -704693 200  520 200 1280
267       687659 200  520 200 1280
268      -718018 200  520 200 1280
269       673735 200  520 200 1280
270      -731067 200  520 200 1280
271       659552 200  520 200 1280
272      -743836 200  520 200 1280
273       645117 200  520 200 1280
274      -756320 200  520 200 1280
275       630435 200  520 200 1280
276      -768514 200  520 200 1280
277       615511 200  520 200 1280
278      -780414 200  520 200 1280
279       600351 200  520 200 1280
280      -792015 200  520 200 1280
281       584961 200  520 200 1280
282      -803312 200  520 200 1280
283       569348 200  520 200 1280
284      -814302 200  520 200 1280
285       553516 200  520 200 1280
286      -824980 200  520 200 1280
287       537472 200  520 200 1280
288      -835341 200  520 200 1280
289       521222 200  520 200 1280
290      -845383 200  520 200 1280
291       504772 200  520 200 1280
292      -855101 200  520 200 1280
293       488129 200  520 200 1280
294      -864491 200  520 200 1280
295       471299 200  520 200 1280
296      -873550 200  520 200 1280
297       454289 200  520 200 1280
298      -882274 200  520 200 1280
299       437104 200  520 200 1280
300      -890660 200  520 200 1280
301       419752 200  520 200 1280
302      -898705 200  520 200 1280
303       402239 200  520 200 1280
304      -906406 200  520 200 1280
305       384572 200  520 200 1280
306      -913759 200  520 200 1280
307       366758 200  520 200 1280
308      -920763 200  520 200 1280
309       348803 200  520 200 1280
310      -927413 200  520 200 1280
311       330714 200  520 200 1280
312      -933709 200  520 200 1280
313       312499 200  520 200 1280
314      -939646 200  520 200 1280
315       294164 200  520 200 1280
316      -945224 200  520 200 1280
317       275717 200  520 200 1280
318      -950439 200  520 200 1280
319       257163 200  520 200 1280
320      -955290 200  520 200 1280
321       238512 200  520 200 1280
322      -959776 200  520 200 1280
323       219769 200  520 200 1280
324      -963893 200  520 200 1280
325       200941 200  520 200 1280
326      -967641 200  520 200 1280
327       182037 200  520 200 1280
328      -971019 200  520 200 1280
329       163063 200  520 200 1280
330      -974025 200  520 200 1280
331       144026 200  520 200 1280
332      -976657 200  520 200 1280
333       124935 200  520 200 1280
334      -978915 200  520 200 1280
335       105795 200  520 200 1280
336      -980798 200  520 200 1280
337      86614.8 200  520 200 1280
338      -982306 200  520 200 1280
339      67401.5 200  520 200 1280
340      -983437 200  520 200 1280
341      48162.4 200  520 200 1280
342      -984191 200  520 200 1280
343      28904.8 200  520 200 1280
344      -984568 200  520 200 1280
345      9636.17 200  520 200 1280
346     -9636.17 200  520 200 1280
347     -28904.8 200  520 200 1280
348     -48162.4 200  520 200 1280
349     -67401.5 200  520 200 1280
350     -86614.8 200  520 200 1280
351      -105795 200  520 200 1280
352      -124935 200  520 200 1280
353      -144026 200  520 200 1280
354      -163063 200  520 200 1280
355      -182037 200  520 200 1280
356      -200941 200  520 200 1280
357      -219769 200  520 200 1280
358      -238512 200  520 200 1280
359      -257163 200  520 200 1280
360      -275717 200  520 200 1280
361      -294164 200  520 200 1280
362      -312499 200  520 200 1280
363      -330714 200  520 200 1280
364      -348803 200  520 200 1280
365      -366758 200  520 200 1280
366      -384572 200  520 200 1280
367      -402239 200  520 200 1280
368      -419752 200  520 200 1280
369      -437104 200  520 200 1280
370      -454289 200  520 200 1280
371      -471299 200  520 200 1280
372      -488129 200  520 200 1280
373      -504772 200  520 200 1280
374      -521222 200  520 200 1280
375      -537472 200  520 200 1280
376      -553516 200  520 200 1280
377      -569348 200  520 200 1280
378      -584961 200  520 200 1280
379      -600351 200  520 200 1280
380      -615511 200  520 200 1280
381      -630435 200  520 200 1280
382      -645117 200  520 200 1280
383      -659552 200  520 200 1280
384      -673735 200  520 200 1280
385      -687659 200  520 200 1280
386      -701320 200  520 200 1280
387      -714712 200  520 200 1280
388      -727830 200  520 200 1280
389      -740670 200  520 200 1280
390      -753226 200  520 200 1280
391      -765493 200  520 200 1280
392      -777467 200  520 200 1280
393      -789143 200  520 200 1280
394      -800517 200  520 200 1280
395      -811584 200  520 200 1280
396      -822340 200  520 200 1280
397      -832781 200  520 200 1280
398      -842903 200  520 200 1280
399      -852702 200  520 200 1280
400      -862174 200  520 200 1280
401      -871316 200  520 200 1280
402      -880125 200  520 200 1280
403      -888596 200  520 200 1280
404      -896726 200  520 200 1280
405      -904513 200  520 200 1280
406      -911954 200  520 200 1280
407      -919045 200  520 200 1280
408      -925784 200  520 200 1280
409      -932168 200  520 200 1280
410      -938195 200  520 200 1280
411      -943863 200  520 200 1280
412      -949169 200  520 200 1280
413      -954112 200  520 200 1280
414      -958689 200  520 200 1280
415      -962898 200  520 200 1280
416      -966739 200  520 200 1280
417      -970209 200  520 200 1280
418      -973308 200  520 200 1280
419      -976034 200  520 200 1280
420      -978386 200  520 200 1280
421      -980363 200  520 200 1280
422      -981964 200  520 200 1280
423      -983189 200  520 200 1280
424      -984038 200  520 200 1280
425      -984509 200  520 200 1280
426      -984604 200  520 200 1280
427      -984321 200  520 200 1280
428      -983661 200  520 200 1280
429      -982624 200  520 200 1280
430      -981210 200  520 200 1280
431      -979421 200  520 200 1280
432      -977257 200  520 200 1280
433      -974718 200  520 200 1280
434      -971805 200  520 200 1280
435      -968521 200  520 200 1280
436      -964865 200  520 200 1280
437      -960840 200  520 200 1280
438      -956446 200  520 200 1280
439      -951686 200  520 200 1280
440      -946562 200  520 200 1280
441      -941074 200  520 200 1280
442      -935227 200  520 200 1280
443      -929021 200  520 200 1280
444      -922459 200  520 200 1280
445      -915543 200  520 200 1280
446      -908277 200  520 200 1280
447      -900663 200  520 200 1280
448      -892704 200  520 200 1280
449      -884402 200  520 200 1280
450      -875762 200  520 200 1280
451      -866787 200  520 200 1280
452      -857479 200  520 200 1280
453      -847843 200  520 200 1280
454      -837882 200  520 200 1280
455      -827600 200  520 200 1280
456      -817001 200  520 200 1280
457      -806089 200  520 200 1280
458      -794868 200  520 200 1280
459      -783342 200  520 200 1280
460      -771517 200  520 200 1280
461      -759396 200  520 200 1280
462      -746984 200  520 200 1280
463      -734285 200  520 200 1280
464      -721306 200  520 200 1280
465      -708050 200  520 200 1280
466      -694523 200  520 200 1280
467      -680729 200  520 200 1280
468      -666675 200  520 200 1280
469      -652366 200  520 200 1280
470      -637806 200  520 200 1280
471      -623002 200  520 200 1280
472      -607960 200  520 200 1280
473      -592685 200  520 200 1280
474      -577182 200  520 200 1280
475      -561458 200  520 200 1280
476      -545520 200  520 200 1280
477      -529372 200  520 200 1280
478      -513022 200  520 200 1280
479      -496474 200  520 200 1280
480      -479737 200  520 200 1280
481      -462816 200  520 200 1280
482      -445718 200  520 200 1280
483      -428448 200  520 200 1280
484      -411015 200  520 200 1280

# Format of ADC events:
# id num dwell delay freq phase
# ..  ..    ns    us   Hz   rad
[ADC]
1 512 1000 1280 0 2.98451
2 512 1000 1280 0 2.82743
3 512 1000 1280 0 4.71239
4 512 1000 1280 0 2.35619
5 512 1000 1280 0 2.04204
6 512 1000 1280 0 3.76991
7 512 1000 1280 0 1.25664
8 512 1000 1280 0 0.785398
9 512 1000 1280 0 5.96903
10 512 1000 1280 0 5.34071
11 512 1000 1280 0 0.471239
12 512 1000 1280 0 3.92699
13 512 1000 1280 0 3.14159
14 512 1000 1280 0 4.39823
15 512 1000 1280 0 1.41372
16 512 1000 1280 0 1.5708
17 512 1000 1280 0 3.61283
18 512 1000 1280 0 4.55531
19 512 1000 1280 0 0
20 512 1000 1280 0 2.19911
21 512 1000 1280 0 5.49779
22 512 1000 1280 0 0.628319
23 512 1000 1280 0 5.18363
24 512 1000 1280 0 6.12611

# Format of delays:
# id delay (us)
[DELAYS]
1 10

# Sequence Shapes
[SHAPES]

shape_id 1
num_samples 1070
0.0016276
0.0010875
0.0010894
0.0010911
0.0010929
0.0010945
0.001096
0.0010974
0.0010987
0.0010999
0.001101
0.001102
0.0011029
0.0011036
0.0011044
0.0011049
0.0011053
0.0011057
0.001106
0.0011061
0.0011062
0.0011061
0.0011059
0.0011056
0.0011053
0.0011048
0.0011042
0.0011034
0.0011027
0.0011018
0.0011007
0.0010996
0.0010984
0.001097
0.0010956
0.001094
0.0010923
0.0010906
0.0010887
0.0010868
0.0010846
0.0010825
0.0010801
0.0010778
0.0010752
0.0010727
0.0010699
0.0010671
0.0010641
0.0010612
0.001058
0.0010547
0.0010514
0.001048
0.0010444
0.0010408
0.001037
0.0010331
0.0010292
0.0010251
0.001021
0.0010167
0.0010124
0.0010079
0.0010033
0.0009987
0.0009939
0.0009891
0.0009842
0.0009791
0.0009739
0.0009687
0.0009634
0.000958
0.0009524
0.0009469
0.0009411
0.0009353
0.0009295
0.0009235
0.0009174
0.0009112
0.000905
0.0008987
0.0008923
0.0008857
0.0008792
0.0008725
0.0008657
0.0008589
0.0008519
0.000845
0.0008379
0.0008307
0.0008234
0.0008161
0.0008087
0.0008013
0.0007937
0.000786
0.0007784
0.0007705
0.0007627
0.0007548
0.0007468
0.0007388
0.0007306
0.0007224
0.0007141
0.0007058
0.0006974
0.000689
0.0006804
0.0006719
0.0006632
0.0006545
0.0006457
0.0006369
0.0006281
0.0006191
0.0006101
0.000601
0.000592
0.0005829
0.0005736
0.0005644
0.0005551
0.0005458
0.0005364
0.000527
0.0005175
0.000508
0.0004984
0.0004888
0.0004792
0.0004696
0.0004598
0.0004501
0.0004403
0.0004305
0.0004207
0.0004108
